Data from h2d2-3_HR4C25001_18-33-53-043.txt Node
Date: Thu Aug 31 18:33:53 CDT 2023
User: kk37594
Spectrometer: HR4C2500
Trigger mode: 4
Integration Time (sec): 1.000000E-1
Scans to average: 1
Electric dark correction enabled: true
Nonlinearity correction enabled: false
Boxcar width: 0
XAxis mode: Wavelengths
Number of Pixels in Spectrum: 3648
>>>>>Begin Spectral Data<<<<<
629.667	-23.62
629.685	-23.62
629.703	-23.62
629.722	-57.62
629.74	-46.62
629.758	-6.62
629.776	-6.62
629.795	15.38
629.813	2.38
629.831	2.38
629.85	6.38
629.868	-4.62
629.886	8.38
629.905	-2.62
629.923	-3.62
629.941	-3.62
629.96	-4.62
629.978	-2.62
629.996	-2.62
630.014	15.38
630.033	13.38
630.051	5.38
630.069	-8.62
630.088	9.38
630.106	-5.62
630.124	-7.62
630.142	-5.62
630.161	-5.62
630.179	1.38
630.197	-3.62
630.216	18.38
630.234	68.38
630.252	22.38
630.27	15.38
630.289	13.38
630.307	12.38
630.325	6.38
630.343	18.38
630.362	24.38
630.38	20.38
630.398	-2.62
630.416	-4.62
630.435	-6.62
630.453	13.38
630.471	23.38
630.489	26.38
630.507	17.38
630.526	0.38
630.544	7.38
630.562	18.38
630.58	-0.62
630.599	11.38
630.617	6.38
630.635	5.38
630.653	12.38
630.671	13.38
630.69	-6.62
630.708	10.38
630.726	17.38
630.744	5.38
630.762	-7.62
630.781	-10.62
630.799	1.38
630.817	13.38
630.835	24.38
630.853	15.38
630.871	1.38
630.89	7.38
630.908	-1.62
630.926	-18.62
630.944	13.38
630.962	20.38
630.98	34.38
630.999	12.38
631.017	3.38
631.035	-1.62
631.053	-7.62
631.071	13.38
631.089	3.38
631.108	-3.62
631.126	-4.62
631.144	6.38
631.162	10.38
631.18	6.38
631.198	19.38
631.216	21.38
631.234	-9.62
631.253	-2.62
631.271	2.38
631.289	7.38
631.307	6.38
631.325	5.38
631.343	0.38
631.361	1.38
631.379	19.38
631.398	8.38
631.416	-6.62
631.434	-4.62
631.452	9.38
631.47	-14.62
631.488	1.38
631.506	-3.62
631.524	0.38
631.542	1.38
631.56	-8.62
631.578	1.38
631.597	10.38
631.615	-13.62
631.633	5.38
631.651	12.38
631.669	3.38
631.687	26.38
631.705	35.38
631.723	16.38
631.741	-14.62
631.759	-13.62
631.777	5.38
631.795	16.38
631.813	28.38
631.831	15.38
631.849	20.38
631.867	19.38
631.885	9.38
631.903	1.38
631.922	-0.62
631.94	0.38
631.958	4.38
631.976	22.38
631.994	-4.62
632.012	-1.62
632.03	5.38
632.048	8.38
632.066	24.38
632.084	8.38
632.102	-4.62
632.12	-3.62
632.138	-3.62
632.156	28.38
632.174	-7.62
632.192	-15.62
632.21	-5.62
632.228	-3.62
632.246	8.38
632.264	7.38
632.282	9.38
632.3	-0.62
632.318	-8.62
632.336	11.38
632.354	16.38
632.372	2.38
632.39	-5.62
632.408	-4.62
632.426	4.38
632.443	2.38
632.461	5.38
632.479	-3.62
632.497	-9.62
632.515	3.38
632.533	5.38
632.551	0.38
632.569	-1.62
632.587	7.38
632.605	-2.62
632.623	22.38
632.641	-2.62
632.659	-8.62
632.677	19.38
632.695	13.38
632.713	-1.62
632.731	2.38
632.748	4.38
632.766	20.38
632.784	16.38
632.802	18.38
632.82	24.38
632.838	1.38
632.856	0.38
632.874	17.38
632.892	-11.62
632.91	-11.62
632.928	-3.62
632.945	-6.62
632.963	-7.62
632.981	1.38
632.999	2.38
633.017	6.38
633.035	9.38
633.053	12.38
633.071	-9.62
633.089	-4.62
633.106	-6.62
633.124	4.38
633.142	12.38
633.16	37.38
633.178	5.38
633.196	8.38
633.214	19.38
633.231	21.38
633.249	-7.62
633.267	6.38
633.285	9.38
633.303	-11.62
633.321	-1.62
633.339	7.38
633.356	12.38
633.374	14.38
633.392	4.38
633.41	-7.62
633.428	7.38
633.446	5.38
633.463	-4.62
633.481	-2.62
633.499	0.38
633.517	1.38
633.535	-3.62
633.552	6.38
633.57	-4.62
633.588	-17.62
633.606	-18.62
633.624	5.38
633.641	8.38
633.659	-6.62
633.677	-8.62
633.695	7.38
633.713	13.38
633.73	16.38
633.748	8.38
633.766	5.38
633.784	4.38
633.802	-11.62
633.819	3.38
633.837	7.38
633.855	-8.62
633.873	-14.62
633.89	-14.62
633.908	-0.62
633.926	5.38
633.944	-5.62
633.961	-0.62
633.979	0.38
633.997	-16.62
634.015	-8.62
634.032	17.38
634.05	9.38
634.068	-9.62
634.086	12.38
634.103	30.38
634.121	6.38
634.139	4.38
634.157	9.38
634.174	-3.62
634.192	-2.62
634.21	-4.62
634.227	12.38
634.245	15.38
634.263	-1.62
634.281	2.38
634.298	0.38
634.316	1.38
634.334	1.38
634.351	-19.62
634.369	-23.62
634.387	3.38
634.404	4.38
634.422	0.38
634.44	-2.62
634.458	-10.62
634.475	0.38
634.493	26.38
634.511	9.38
634.528	-0.62
634.546	-4.62
634.564	-2.62
634.581	-10.62
634.599	10.38
634.617	7.38
634.634	-3.62
634.652	2.38
634.67	6.38
634.687	9.38
634.705	9.38
634.723	12.38
634.74	10.38
634.758	-10.62
634.775	-2.62
634.793	-11.62
634.811	14.38
634.828	1.38
634.846	4.38
634.864	8.38
634.881	4.38
634.899	-3.62
634.917	5.38
634.934	7.38
634.952	0.38
634.969	-5.62
634.987	-0.62
635.005	-7.62
635.022	9.38
635.04	15.38
635.057	7.38
635.075	-7.62
635.093	-0.62
635.11	2.38
635.128	10.38
635.145	-9.62
635.163	18.38
635.181	4.38
635.198	2.38
635.216	4.38
635.233	-5.62
635.251	3.38
635.268	-1.62
635.286	-4.62
635.304	-17.62
635.321	-13.62
635.339	-2.62
635.356	-7.62
635.374	-1.62
635.391	-15.62
635.409	0.38
635.426	21.38
635.444	12.38
635.462	-7.62
635.479	-5.62
635.497	-5.62
635.514	-1.62
635.532	1.38
635.549	8.38
635.567	6.38
635.584	8.38
635.602	7.38
635.619	16.38
635.637	-0.62
635.654	9.38
635.672	-12.62
635.689	1.38
635.707	-2.62
635.724	-5.62
635.742	-9.62
635.759	-18.62
635.777	-7.62
635.795	-0.62
635.812	8.38
635.829	-6.62
635.847	3.38
635.864	17.38
635.882	1.38
635.899	4.38
635.917	5.38
635.934	-7.62
635.952	-16.62
635.969	-10.62
635.987	0.38
636.004	25.38
636.022	6.38
636.039	-11.62
636.057	5.38
636.074	1.38
636.092	-1.62
636.109	-3.62
636.127	-8.62
636.144	-4.62
636.161	8.38
636.179	-8.62
636.196	-26.62
636.214	-11.62
636.231	-3.62
636.249	-2.62
636.266	1.38
636.283	4.38
636.301	6.38
636.318	-4.62
636.336	10.38
636.353	4.38
636.371	5.38
636.388	3.38
636.405	24.38
636.423	23.38
636.44	-0.62
636.458	-5.62
636.475	-3.62
636.492	5.38
636.51	-2.62
636.527	-5.62
636.545	8.38
636.562	-10.62
636.579	-14.62
636.597	-3.62
636.614	-0.62
636.632	1.38
636.649	20.38
636.666	22.38
636.684	15.38
636.701	-2.62
636.718	-11.62
636.736	1.38
636.753	-4.62
636.771	17.38
636.788	19.38
636.805	12.38
636.823	-5.62
636.84	-4.62
636.857	2.38
636.875	-19.62
636.892	-13.62
636.909	21.38
636.927	14.38
636.944	-1.62
636.961	-7.62
636.979	5.38
636.996	-7.62
637.013	-2.62
637.031	-0.62
637.048	-7.62
637.065	7.38
637.083	-3.62
637.1	-15.62
637.117	0.38
637.135	6.38
637.152	-5.62
637.169	-2.62
637.187	0.38
637.204	12.38
637.221	0.38
637.238	4.38
637.256	15.38
637.273	-6.62
637.29	-3.62
637.308	5.38
637.325	7.38
637.342	1.38
637.359	4.38
637.377	5.38
637.394	20.38
637.411	3.38
637.428	11.38
637.446	-3.62
637.463	4.38
637.48	10.38
637.498	9.38
637.515	8.38
637.532	12.38
637.549	1.38
637.567	-6.62
637.584	-16.62
637.601	-0.62
637.618	4.38
637.636	4.38
637.653	-1.62
637.67	-0.62
637.687	7.38
637.704	10.38
637.722	6.38
637.739	5.38
637.756	16.38
637.773	24.38
637.791	6.38
637.808	-3.62
637.825	4.38
637.842	8.38
637.859	-2.62
637.877	14.38
637.894	4.38
637.911	-3.62
637.928	-3.62
637.945	15.38
637.963	8.38
637.98	5.38
637.997	1.38
638.014	-5.62
638.031	-8.62
638.049	-6.62
638.066	-14.62
638.083	-15.62
638.1	-0.62
638.117	16.38
638.134	9.38
638.152	-0.62
638.169	-17.62
638.186	-9.62
638.203	-16.62
638.22	-13.62
638.237	-22.62
638.255	-30.62
638.272	-17.62
638.289	-1.62
638.306	-4.62
638.323	1.38
638.34	-6.62
638.357	8.38
638.374	15.38
638.392	1.38
638.409	0.38
638.426	-10.62
638.443	-2.62
638.46	-10.62
638.477	3.38
638.494	11.38
638.511	3.38
638.529	7.38
638.546	-4.62
638.563	6.38
638.58	11.38
638.597	7.38
638.614	10.38
638.631	-6.62
638.648	-10.62
638.665	-7.62
638.682	-1.62
638.7	11.38
638.717	9.38
638.734	-1.62
638.751	7.38
638.768	4.38
638.785	0.38
638.802	-10.62
638.819	-1.62
638.836	-4.62
638.853	-9.62
638.87	-10.62
638.887	-5.62
638.904	-2.62
638.921	15.38
638.939	11.38
638.956	6.38
638.973	2.38
638.99	-0.62
639.007	2.38
639.024	-1.62
639.041	15.38
639.058	14.38
639.075	12.38
639.092	8.38
639.109	-9.62
639.126	-15.62
639.143	-11.62
639.16	7.38
639.177	17.38
639.194	11.38
639.211	15.38
639.228	6.38
639.245	-1.62
639.262	-1.62
639.279	-3.62
639.296	0.38
639.313	8.38
639.33	-2.62
639.347	4.38
639.364	4.38
639.381	11.38
639.398	15.38
639.415	7.38
639.432	4.38
639.449	-11.62
639.466	-5.62
639.483	11.38
639.5	25.38
639.517	18.38
639.534	-14.62
639.551	-10.62
639.568	-17.62
639.585	1.38
639.602	19.38
639.619	11.38
639.636	-5.62
639.653	11.38
639.669	-0.62
639.686	-6.62
639.703	7.38
639.72	7.38
639.737	-4.62
639.754	1.38
639.771	17.38
639.788	26.38
639.805	32.38
639.822	15.38
639.839	2.38
639.856	-0.62
639.873	-3.62
639.89	12.38
639.906	-15.62
639.923	-7.62
639.94	4.38
639.957	9.38
639.974	18.38
639.991	17.38
640.008	1.38
640.025	-4.62
640.042	-5.62
640.059	9.38
640.075	3.38
640.092	12.38
640.109	-7.62
640.126	0.38
640.143	-14.62
640.16	-5.62
640.177	-6.62
640.194	0.38
640.21	8.38
640.227	5.38
640.244	1.38
640.261	2.38
640.278	10.38
640.295	4.38
640.312	-10.62
640.328	-3.62
640.345	-4.62
640.362	4.38
640.379	5.38
640.396	5.38
640.413	24.38
640.43	13.38
640.446	-9.62
640.463	2.38
640.48	-17.62
640.497	-30.62
640.514	-18.62
640.531	0.38
640.547	0.38
640.564	5.38
640.581	11.38
640.598	12.38
640.615	11.38
640.631	-0.62
640.648	-15.62
640.665	0.38
640.682	26.38
640.699	0.38
640.715	9.38
640.732	-8.62
640.749	-3.62
640.766	18.38
640.783	19.38
640.799	10.38
640.816	-2.62
640.833	6.38
640.85	9.38
640.866	11.38
640.883	7.38
640.9	1.38
640.917	8.38
640.933	-5.62
640.95	-11.62
640.967	-6.62
640.984	-10.62
641.001	-4.62
641.017	-6.62
641.034	-1.62
641.051	8.38
641.068	-6.62
641.084	14.38
641.101	-0.62
641.118	17.38
641.134	15.38
641.151	2.38
641.168	-4.62
641.185	-6.62
641.201	24.38
641.218	20.38
641.235	6.38
641.252	4.38
641.268	0.38
641.285	1.38
641.302	4.38
641.318	-2.62
641.335	2.38
641.352	-8.62
641.368	-6.62
641.385	5.38
641.402	3.38
641.419	-0.62
641.435	26.38
641.452	32.38
641.469	1.38
641.485	-4.62
641.502	6.38
641.519	3.38
641.535	0.38
641.552	23.38
641.569	22.38
641.585	3.38
641.602	7.38
641.619	0.38
641.635	-11.62
641.652	-10.62
641.669	2.38
641.685	7.38
641.702	14.38
641.719	12.38
641.735	-0.62
641.752	-0.62
641.769	5.38
641.785	7.38
641.802	0.38
641.818	8.38
641.835	11.38
641.852	7.38
641.868	25.38
641.885	11.38
641.902	-4.62
641.918	-13.62
641.935	5.38
641.951	7.38
641.968	-16.62
641.985	-18.62
642.001	-10.62
642.018	-6.62
642.034	13.38
642.051	1.38
642.068	-13.62
642.084	4.38
642.101	12.38
642.117	0.38
642.134	4.38
642.151	6.38
642.167	2.38
642.184	0.38
642.2	10.38
642.217	19.38
642.233	26.38
642.25	24.38
642.267	29.38
642.283	23.38
642.3	9.38
642.316	-5.62
642.333	-2.62
642.349	1.38
642.366	-15.62
642.382	-14.62
642.399	67.38
642.416	148.38
642.432	13.38
642.449	-24.62
642.465	0.38
642.482	1.38
642.498	-17.62
642.515	-2.62
642.531	8.38
642.548	2.38
642.564	9.38
642.581	16.38
642.597	-1.62
642.614	4.38
642.63	19.38
642.647	1.38
642.663	23.38
642.68	5.38
642.696	-1.62
642.713	-0.62
642.729	19.38
642.746	10.38
642.762	1.38
642.779	0.38
642.795	4.38
642.812	-1.62
642.828	-10.62
642.845	-5.62
642.861	6.38
642.878	-4.62
642.894	12.38
642.911	33.38
642.927	-11.62
642.944	-2.62
642.96	24.38
642.977	11.38
642.993	9.38
643.01	-4.62
643.026	-11.62
643.042	-8.62
643.059	-2.62
643.075	-5.62
643.092	-12.62
643.108	-14.62
643.125	-9.62
643.141	-9.62
643.158	1.38
643.174	4.38
643.19	29.38
643.207	29.38
643.223	13.38
643.24	0.38
643.256	10.38
643.272	14.38
643.289	-6.62
643.305	-6.62
643.322	-0.62
643.338	11.38
643.355	1.38
643.371	9.38
643.387	-0.62
643.404	-14.62
643.42	-17.62
643.437	7.38
643.453	24.38
643.469	-5.62
643.486	3.38
643.502	5.38
643.518	13.38
643.535	-2.62
643.551	20.38
643.568	-1.62
643.584	3.38
643.6	7.38
643.617	8.38
643.633	18.38
643.649	7.38
643.666	8.38
643.682	-6.62
643.698	-8.62
643.715	-6.62
643.731	-4.62
643.748	-0.62
643.764	9.38
643.78	-3.62
643.797	5.38
643.813	20.38
643.829	14.38
643.846	15.38
643.862	23.38
643.878	23.38
643.895	1.38
643.911	10.38
643.927	7.38
643.943	-3.62
643.96	-12.62
643.976	-18.62
643.992	-7.62
644.009	15.38
644.025	2.38
644.041	2.38
644.058	5.38
644.074	-7.62
644.09	2.38
644.106	20.38
644.123	6.38
644.139	5.38
644.155	1.38
644.172	4.38
644.188	24.38
644.204	9.38
644.22	-0.62
644.237	2.38
644.253	0.38
644.269	-6.62
644.286	-5.62
644.302	-5.62
644.318	-0.62
644.334	0.38
644.351	12.38
644.367	-12.62
644.383	-9.62
644.399	-10.62
644.416	7.38
644.432	5.38
644.448	-11.62
644.464	-0.62
644.481	9.38
644.497	3.38
644.513	9.38
644.529	11.38
644.545	9.38
644.562	-5.62
644.578	-2.62
644.594	0.38
644.61	5.38
644.627	12.38
644.643	1.38
644.659	3.38
644.675	-11.62
644.691	-10.62
644.708	-2.62
644.724	5.38
644.74	-17.62
644.756	-5.62
644.772	-3.62
644.789	3.38
644.805	9.38
644.821	0.38
644.837	6.38
644.853	-3.62
644.869	-8.62
644.886	4.38
644.902	13.38
644.918	12.38
644.934	8.38
644.95	16.38
644.966	-0.62
644.983	0.38
644.999	9.38
645.015	-0.62
645.031	2.38
645.047	24.38
645.063	6.38
645.079	25.38
645.096	70.38
645.112	24.38
645.128	15.38
645.144	-3.62
645.16	-2.62
645.176	16.38
645.192	9.38
645.209	21.38
645.225	17.38
645.241	1.38
645.257	29.38
645.273	13.38
645.289	11.38
645.305	3.38
645.321	2.38
645.337	7.38
645.354	1.38
645.37	-4.62
645.386	1.38
645.402	7.38
645.418	-3.62
645.434	-14.62
645.45	-0.62
645.466	26.38
645.482	4.38
645.498	6.38
645.514	-13.62
645.531	0.38
645.547	-1.62
645.563	12.38
645.579	-8.62
645.595	7.38
645.611	3.38
645.627	7.38
645.643	18.38
645.659	16.38
645.675	14.38
645.691	3.38
645.707	0.38
645.723	-2.62
645.739	-3.62
645.755	13.38
645.771	-17.62
645.787	-8.62
645.803	19.38
645.819	27.38
645.835	3.38
645.852	36.38
645.868	11.38
645.884	-1.62
645.9	10.38
645.916	19.38
645.932	3.38
645.948	5.38
645.964	9.38
645.98	13.38
645.996	12.38
646.012	22.38
646.028	18.38
646.044	-7.62
646.06	3.38
646.076	-2.62
646.092	0.38
646.108	5.38
646.124	2.38
646.14	-2.62
646.156	-15.62
646.172	19.38
646.188	21.38
646.203	1.38
646.219	-1.62
646.235	12.38
646.251	24.38
646.267	4.38
646.283	10.38
646.299	0.38
646.315	4.38
646.331	7.38
646.347	11.38
646.363	1.38
646.379	1.38
646.395	-18.62
646.411	1.38
646.427	4.38
646.443	-8.62
646.459	-17.62
646.475	2.38
646.491	2.38
646.506	-6.62
646.522	-12.62
646.538	7.38
646.554	0.38
646.57	-2.62
646.586	0.38
646.602	17.38
646.618	0.38
646.634	4.38
646.65	7.38
646.666	-5.62
646.682	-10.62
646.697	5.38
646.713	-4.62
646.729	-15.62
646.745	2.38
646.761	1.38
646.777	0.38
646.793	7.38
646.809	15.38
646.824	0.38
646.84	5.38
646.856	-5.62
646.872	-2.62
646.888	4.38
646.904	-10.62
646.92	0.38
646.936	2.38
646.951	5.38
646.967	6.38
646.983	16.38
646.999	6.38
647.015	15.38
647.031	15.38
647.047	-6.62
647.062	-4.62
647.078	-7.62
647.094	-5.62
647.11	7.38
647.126	-8.62
647.142	6.38
647.157	9.38
647.173	8.38
647.189	-16.62
647.205	-17.62
647.221	-10.62
647.236	-4.62
647.252	-7.62
647.268	-5.62
647.284	8.38
647.3	14.38
647.315	23.38
647.331	5.38
647.347	19.38
647.363	10.38
647.379	21.38
647.394	4.38
647.41	-11.62
647.426	-1.62
647.442	6.38
647.458	12.38
647.473	2.38
647.489	-0.62
647.505	6.38
647.521	2.38
647.536	-4.62
647.552	-7.62
647.568	-10.62
647.584	0.38
647.599	-3.62
647.615	-3.62
647.631	4.38
647.647	8.38
647.662	5.38
647.678	-7.62
647.694	-10.62
647.71	-19.62
647.725	-18.62
647.741	-13.62
647.757	-17.62
647.773	22.38
647.788	17.38
647.804	-9.62
647.82	-9.62
647.835	4.38
647.851	5.38
647.867	1.38
647.883	4.38
647.898	-2.62
647.914	17.38
647.93	18.38
647.945	4.38
647.961	16.38
647.977	13.38
647.993	11.38
648.008	16.38
648.024	5.38
648.04	2.38
648.055	-4.62
648.071	3.38
648.087	1.38
648.102	-11.62
648.118	-17.62
648.134	-5.62
648.149	-8.62
648.165	-6.62
648.181	-4.62
648.196	-3.62
648.212	6.38
648.228	-8.62
648.243	14.38
648.259	9.38
648.275	9.38
648.29	4.38
648.306	11.38
648.322	10.38
648.337	-13.62
648.353	3.38
648.368	27.38
648.384	69.38
648.4	1.38
648.415	-10.62
648.431	-2.62
648.447	5.38
648.462	13.38
648.478	3.38
648.493	-4.62
648.509	8.38
648.525	13.38
648.54	-10.62
648.556	-0.62
648.572	4.38
648.587	4.38
648.603	8.38
648.618	3.38
648.634	8.38
648.65	7.38
648.665	-0.62
648.681	-10.62
648.696	-5.62
648.712	3.38
648.727	22.38
648.743	32.38
648.759	34.38
648.774	11.38
648.79	-10.62
648.805	-17.62
648.821	-1.62
648.836	3.38
648.852	-7.62
648.868	-3.62
648.883	7.38
648.899	2.38
648.914	-7.62
648.93	-5.62
648.945	1.38
648.961	21.38
648.976	7.38
648.992	-7.62
649.007	4.38
649.023	-10.62
649.039	12.38
649.054	-6.62
649.07	-1.62
649.085	-9.62
649.101	-5.62
649.116	-14.62
649.132	0.38
649.147	-3.62
649.163	-8.62
649.178	-18.62
649.194	-15.62
649.209	17.38
649.225	0.38
649.24	7.38
649.256	21.38
649.271	12.38
649.287	3.38
649.302	-13.62
649.318	1.38
649.333	-3.62
649.349	-2.62
649.364	2.38
649.38	21.38
649.395	17.38
649.41	3.38
649.426	3.38
649.441	-2.62
649.457	20.38
649.472	-10.62
649.488	-2.62
649.503	4.38
649.519	3.38
649.534	0.38
649.55	21.38
649.565	22.38
649.581	5.38
649.596	-13.62
649.611	-4.62
649.627	6.38
649.642	8.38
649.658	-5.62
649.673	8.38
649.689	17.38
649.704	-0.62
649.719	12.38
649.735	13.38
649.75	17.38
649.766	-6.62
649.781	6.38
649.796	-12.62
649.812	-12.62
649.827	5.38
649.843	-2.62
649.858	-3.62
649.874	7.38
649.889	12.38
649.904	6.38
649.92	21.38
649.935	-1.62
649.95	11.38
649.966	-3.62
649.981	4.38
649.997	23.38
650.012	-4.62
650.027	-14.62
650.043	-5.62
650.058	-9.62
650.073	-3.62
650.089	9.38
650.104	9.38
650.12	-7.62
650.135	-3.62
650.15	-0.62
650.166	-1.62
650.181	4.38
650.196	13.38
650.212	26.38
650.227	4.38
650.242	-8.62
650.258	9.38
650.273	13.38
650.288	10.38
650.304	10.38
650.319	-4.62
650.334	-19.62
650.35	-6.62
650.365	26.38
650.38	7.38
650.396	-20.62
650.411	-3.62
650.426	-0.62
650.441	-2.62
650.457	4.38
650.472	6.38
650.487	19.38
650.503	-10.62
650.518	-16.62
650.533	-2.62
650.549	0.38
650.564	18.38
650.579	19.38
650.594	8.38
650.61	1.38
650.625	-5.62
650.64	-2.62
650.656	-13.62
650.671	-13.62
650.686	6.38
650.701	28.38
650.717	8.38
650.732	11.38
650.747	5.38
650.762	4.38
650.778	0.38
650.793	0.38
650.808	-8.62
650.823	-5.62
650.839	8.38
650.854	4.38
650.869	14.38
650.884	24.38
650.9	5.38
650.915	4.38
650.93	-2.62
650.945	-6.62
650.96	2.38
650.976	12.38
650.991	-8.62
651.006	-6.62
651.021	12.38
651.037	16.38
651.052	1.38
651.067	-12.62
651.082	7.38
651.097	-15.62
651.113	-19.62
651.128	-0.62
651.143	12.38
651.158	5.38
651.173	-6.62
651.189	11.38
651.204	7.38
651.219	-6.62
651.234	-8.62
651.249	-0.62
651.264	4.38
651.28	1.38
651.295	-17.62
651.31	20.38
651.325	-23.62
651.34	-14.62
651.355	3.38
651.371	6.38
651.386	-7.62
651.401	-4.62
651.416	0.38
651.431	-10.62
651.446	-15.62
651.461	-8.62
651.477	-4.62
651.492	15.38
651.507	2.38
651.522	14.38
651.537	10.38
651.552	-4.62
651.567	-3.62
651.583	8.38
651.598	14.38
651.613	1.38
651.628	-3.62
651.643	-2.62
651.658	-7.62
651.673	-14.62
651.688	-20.62
651.703	-8.62
651.719	3.38
651.734	23.38
651.749	-7.62
651.764	-7.62
651.779	-1.62
651.794	-4.62
651.809	-15.62
651.824	7.38
651.839	1.38
651.854	9.38
651.869	12.38
651.884	22.38
651.9	0.38
651.915	-16.62
651.93	13.38
651.945	31.38
651.96	6.38
651.975	0.38
651.99	9.38
652.005	5.38
652.02	-0.62
652.035	21.38
652.05	35.38
652.065	56.38
652.08	12.38
652.095	6.38
652.11	25.38
652.125	6.38
652.14	1.38
652.155	3.38
652.17	8.38
652.185	2.38
652.2	3.38
652.215	7.38
652.23	0.38
652.245	5.38
652.261	10.38
652.276	3.38
652.291	14.38
652.306	3.38
652.321	11.38
652.336	5.38
652.351	4.38
652.366	-4.62
652.381	6.38
652.396	12.38
652.41	13.38
652.425	14.38
652.44	9.38
652.455	6.38
652.47	17.38
652.485	-16.62
652.5	-23.62
652.515	-10.62
652.53	4.38
652.545	15.38
652.56	10.38
652.575	-3.62
652.59	36.38
652.605	79.38
652.62	18.38
652.635	-0.62
652.65	-13.62
652.665	-7.62
652.68	1.38
652.695	7.38
652.71	0.38
652.725	-14.62
652.74	-4.62
652.755	4.38
652.769	33.38
652.784	20.38
652.799	6.38
652.814	13.38
652.829	9.38
652.844	-9.62
652.859	-22.62
652.874	-8.62
652.889	26.38
652.904	9.38
652.919	-3.62
652.934	8.38
652.948	15.38
652.963	12.38
652.978	-3.62
652.993	0.38
653.008	15.38
653.023	-6.62
653.038	-8.62
653.053	5.38
653.068	10.38
653.082	-4.62
653.097	-6.62
653.112	10.38
653.127	6.38
653.142	17.38
653.157	25.38
653.172	5.38
653.186	23.38
653.201	13.38
653.216	16.38
653.231	22.38
653.246	2.38
653.261	-5.62
653.276	20.38
653.29	26.38
653.305	2.38
653.32	-5.62
653.335	-9.62
653.35	-6.62
653.365	-0.62
653.379	3.38
653.394	-6.62
653.409	8.38
653.424	4.38
653.439	-1.62
653.454	8.38
653.468	-1.62
653.483	-6.62
653.498	3.38
653.513	9.38
653.528	16.38
653.542	1.38
653.557	3.38
653.572	-1.62
653.587	5.38
653.602	8.38
653.616	22.38
653.631	-0.62
653.646	7.38
653.661	18.38
653.675	1.38
653.69	-8.62
653.705	-11.62
653.72	6.38
653.735	3.38
653.749	4.38
653.764	15.38
653.779	10.38
653.794	13.38
653.808	11.38
653.823	-7.62
653.838	-3.62
653.853	18.38
653.867	-15.62
653.882	-7.62
653.897	12.38
653.912	16.38
653.926	12.38
653.941	9.38
653.956	13.38
653.971	-13.62
653.985	-0.62
654	8.38
654.015	-4.62
654.029	22.38
654.044	21.38
654.059	18.38
654.074	24.38
654.088	65.38
654.103	131.38
654.118	17.38
654.132	13.38
654.147	5.38
654.162	-4.62
654.177	7.38
654.191	-6.62
654.206	-6.62
654.221	6.38
654.235	11.38
654.25	30.38
654.265	81.38
654.279	39.38
654.294	35.38
654.309	41.38
654.323	29.38
654.338	21.38
654.353	16.38
654.367	28.38
654.382	9.38
654.397	-6.62
654.411	22.38
654.426	15.38
654.441	22.38
654.455	8.38
654.47	1.38
654.485	22.38
654.499	22.38
654.514	8.38
654.528	5.38
654.543	22.38
654.558	30.38
654.572	14.38
654.587	24.38
654.602	19.38
654.616	3.38
654.631	5.38
654.645	10.38
654.66	23.38
654.675	8.38
654.689	16.38
654.704	16.38
654.719	8.38
654.733	4.38
654.748	19.38
654.762	22.38
654.777	24.38
654.792	13.38
654.806	10.38
654.821	17.38
654.835	17.38
654.85	4.38
654.864	-3.62
654.879	10.38
654.894	13.38
654.908	11.38
654.923	5.38
654.937	-2.62
654.952	2.38
654.966	13.38
654.981	20.38
654.996	7.38
655.01	23.38
655.025	2.38
655.039	9.38
655.054	8.38
655.068	21.38
655.083	38.38
655.097	16.38
655.112	10.38
655.126	40.38
655.141	46.38
655.156	40.38
655.17	14.38
655.185	29.38
655.199	22.38
655.214	37.38
655.228	47.38
655.243	28.38
655.257	15.38
655.272	29.38
655.286	27.38
655.301	59.38
655.315	78.38
655.33	80.38
655.344	80.38
655.359	73.38
655.373	100.38
655.388	148.38
655.402	353.38
655.417	1110.38
655.431	3442.38
655.446	7940.38
655.46	11377.38
655.475	9935.38
655.489	6626.38
655.504	4928.38
655.518	3918.38
655.532	3152.38
655.547	2348.38
655.561	1612.38
655.576	1244.38
655.59	1644.38
655.605	3982.38
655.619	9516.38
655.634	15237.38
655.648	15308.38
655.663	11003.38
655.677	7697.38
655.691	6037.38
655.706	4756.38
655.72	3575.38
655.735	2504.38
655.749	1564.38
655.764	918.38
655.778	539.38
655.792	336.38
655.807	213.38
655.821	150.38
655.836	111.38
655.85	113.38
655.865	91.38
655.879	76.38
655.893	47.38
655.908	25.38
655.922	38.38
655.937	56.38
655.951	40.38
655.965	32.38
655.98	17.38
655.994	34.38
656.009	12.38
656.023	30.38
656.037	35.38
656.052	17.38
656.066	12.38
656.08	16.38
656.095	18.38
656.109	21.38
656.124	6.38
656.138	20.38
656.152	16.38
656.167	39.38
656.181	26.38
656.195	28.38
656.21	24.38
656.224	15.38
656.238	21.38
656.253	15.38
656.267	25.38
656.281	8.38
656.296	12.38
656.31	13.38
656.324	41.38
656.339	24.38
656.353	1.38
656.367	-7.62
656.382	-1.62
656.396	5.38
656.41	5.38
656.425	16.38
656.439	11.38
656.453	-3.62
656.468	-0.62
656.482	2.38
656.496	-6.62
656.51	3.38
656.525	-3.62
656.539	1.38
656.553	17.38
656.568	-9.62
656.582	-23.62
656.596	-2.62
656.611	-3.62
656.625	13.38
656.639	9.38
656.653	11.38
656.668	3.38
656.682	5.38
656.696	9.38
656.71	10.38
656.725	20.38
656.739	11.38
656.753	22.38
656.767	10.38
656.782	-0.62
656.796	32.38
656.81	51.38
656.824	0.38
656.839	10.38
656.853	7.38
656.867	11.38
656.881	11.38
656.896	0.38
656.91	13.38
656.924	-0.62
656.938	11.38
656.953	10.38
656.967	13.38
656.981	19.38
656.995	13.38
657.009	0.38
657.024	-5.62
657.038	-3.62
657.052	17.38
657.066	24.38
657.08	2.38
657.095	8.38
657.109	-9.62
657.123	7.38
657.137	-5.62
657.151	-3.62
657.166	0.38
657.18	-3.62
657.194	-9.62
657.208	10.38
657.222	-4.62
657.237	-7.62
657.251	6.38
657.265	15.38
657.279	5.38
657.293	-4.62
657.307	3.38
657.322	1.38
657.336	22.38
657.35	31.38
657.364	8.38
657.378	22.38
657.392	-4.62
657.406	-0.62
657.421	12.38
657.435	11.38
657.449	12.38
657.463	5.38
657.477	28.38
657.491	38.38
657.505	-1.62
657.52	-0.62
657.534	-10.62
657.548	4.38
657.562	17.38
657.576	23.38
657.59	3.38
657.604	15.38
657.618	17.38
657.632	4.38
657.647	-9.62
657.661	1.38
657.675	11.38
657.689	12.38
657.703	-6.62
657.717	1.38
657.731	17.38
657.745	14.38
657.759	-3.62
657.773	-8.62
657.787	9.38
657.802	15.38
657.816	9.38
657.83	9.38
657.844	4.38
657.858	15.38
657.872	0.38
657.886	10.38
657.9	14.38
657.914	18.38
657.928	25.38
657.942	8.38
657.956	6.38
657.97	9.38
657.984	10.38
657.998	38.38
658.012	2.38
658.026	-12.62
658.04	1.38
658.054	3.38
658.069	-4.62
658.083	-2.62
658.097	5.38
658.111	25.38
658.125	30.38
658.139	26.38
658.153	15.38
658.167	23.38
658.181	16.38
658.195	-3.62
658.209	1.38
658.223	-13.62
658.237	12.38
658.251	14.38
658.265	17.38
658.279	13.38
658.293	7.38
658.307	17.38
658.321	7.38
658.335	5.38
658.349	9.38
658.363	0.38
658.377	8.38
658.391	13.38
658.405	12.38
658.418	3.38
658.432	8.38
658.446	6.38
658.46	-2.62
658.474	12.38
658.488	13.38
658.502	17.38
658.516	12.38
658.53	-6.62
658.544	1.38
658.558	-6.62
658.572	-13.62
658.586	16.38
658.6	22.38
658.614	-7.62
658.628	-2.62
658.642	16.38
658.656	9.38
658.67	15.38
658.683	41.38
658.697	101.38
658.711	19.38
658.725	11.38
658.739	-3.62
658.753	9.38
658.767	8.38
658.781	17.38
658.795	-1.62
658.809	1.38
658.823	8.38
658.836	5.38
658.85	16.38
658.864	9.38
658.878	7.38
658.892	-8.62
658.906	-7.62
658.92	5.38
658.934	4.38
658.947	-3.62
658.961	-18.62
658.975	5.38
658.989	-0.62
659.003	-11.62
659.017	1.38
659.031	-0.62
659.045	3.38
659.058	14.38
659.072	11.38
659.086	24.38
659.1	17.38
659.114	24.38
659.128	-6.62
659.141	-2.62
659.155	10.38
659.169	3.38
659.183	12.38
659.197	8.38
659.211	9.38
659.224	15.38
659.238	41.38
659.252	25.38
659.266	-3.62
659.28	6.38
659.294	3.38
659.307	-0.62
659.321	5.38
659.335	15.38
659.349	3.38
659.363	-3.62
659.376	23.38
659.39	2.38
659.404	-4.62
659.418	8.38
659.432	4.38
659.445	19.38
659.459	16.38
659.473	-7.62
659.487	-1.62
659.5	-2.62
659.514	2.38
659.528	23.38
659.542	17.38
659.556	-4.62
659.569	9.38
659.583	12.38
659.597	12.38
659.611	19.38
659.624	55.38
659.638	85.38
659.652	17.38
659.666	4.38
659.679	5.38
659.693	-14.62
659.707	-4.62
659.721	-4.62
659.734	0.38
659.748	-3.62
659.762	-16.62
659.776	0.38
659.789	21.38
659.803	-3.62
659.817	8.38
659.83	11.38
659.844	8.38
659.858	-4.62
659.872	-1.62
659.885	7.38
659.899	3.38
659.913	14.38
659.926	17.38
659.94	4.38
659.954	19.38
659.967	10.38
659.981	9.38
659.995	13.38
660.009	3.38
660.022	21.38
660.036	-1.62
660.05	-13.62
660.063	2.38
660.077	17.38
660.091	24.38
660.104	-5.62
660.118	-6.62
660.132	12.38
660.145	9.38
660.159	-0.62
660.173	-1.62
660.186	3.38
660.2	2.38
660.214	1.38
660.227	0.38
660.241	7.38
660.254	2.38
660.268	16.38
660.282	6.38
660.295	15.38
660.309	13.38
660.323	-0.62
660.336	-12.62
660.35	-7.62
660.364	17.38
660.377	3.38
660.391	28.38
660.404	23.38
660.418	21.38
660.432	4.38
660.445	3.38
660.459	17.38
660.472	10.38
660.486	6.38
660.5	-3.62
660.513	0.38
660.527	-9.62
660.54	1.38
660.554	16.38
660.568	5.38
660.581	12.38
660.595	9.38
660.608	2.38
660.622	4.38
660.635	21.38
660.649	16.38
660.663	13.38
660.676	13.38
660.69	20.38
660.703	22.38
660.717	4.38
660.73	-2.62
660.744	-4.62
660.757	-3.62
660.771	3.38
660.785	-3.62
660.798	2.38
660.812	17.38
660.825	31.38
660.839	-8.62
660.852	12.38
660.866	18.38
660.879	10.38
660.893	7.38
660.906	41.38
660.92	21.38
660.933	-10.62
660.947	1.38
660.96	-3.62
660.974	14.38
660.987	13.38
661.001	0.38
661.015	-8.62
661.028	7.38
661.042	16.38
661.055	30.38
661.069	8.38
661.082	20.38
661.095	48.38
661.109	95.38
661.122	16.38
661.136	8.38
661.149	4.38
661.163	21.38
661.176	29.38
661.19	29.38
661.203	27.38
661.217	30.38
661.23	5.38
661.244	7.38
661.257	18.38
661.271	10.38
661.284	26.38
661.298	-9.62
661.311	-9.62
661.324	16.38
661.338	10.38
661.351	-0.62
661.365	18.38
661.378	13.38
661.392	-4.62
661.405	43.38
661.419	116.38
661.432	16.38
661.445	-10.62
661.459	-9.62
661.472	14.38
661.486	29.38
661.499	21.38
661.512	23.38
661.526	30.38
661.539	14.38
661.553	-1.62
661.566	-6.62
661.579	9.38
661.593	0.38
661.606	-5.62
661.62	13.38
661.633	3.38
661.646	1.38
661.66	10.38
661.673	15.38
661.687	13.38
661.7	25.38
661.713	7.38
661.727	32.38
661.74	47.38
661.753	14.38
661.767	20.38
661.78	8.38
661.794	4.38
661.807	-4.62
661.82	8.38
661.834	10.38
661.847	-1.62
661.86	7.38
661.874	3.38
661.887	15.38
661.9	15.38
661.914	1.38
661.927	3.38
661.94	4.38
661.954	-2.62
661.967	26.38
661.98	22.38
661.994	12.38
662.007	13.38
662.02	17.38
662.034	14.38
662.047	9.38
662.06	14.38
662.074	-2.62
662.087	4.38
662.1	12.38
662.114	1.38
662.127	17.38
662.14	-3.62
662.153	4.38
662.167	17.38
662.18	-3.62
662.193	-7.62
662.207	11.38
662.22	26.38
662.233	5.38
662.246	-2.62
662.26	1.38
662.273	5.38
662.286	0.38
662.3	2.38
662.313	0.38
662.326	-0.62
662.339	9.38
662.353	3.38
662.366	-4.62
662.379	4.38
662.392	-2.62
662.406	-0.62
662.419	9.38
662.432	20.38
662.445	12.38
662.459	1.38
662.472	1.38
662.485	8.38
662.498	-8.62
662.512	-2.62
662.525	16.38
662.538	-0.62
662.551	-9.62
662.564	4.38
662.578	12.38
662.591	23.38
662.604	2.38
662.617	19.38
662.63	29.38
662.644	4.38
662.657	8.38
662.67	13.38
662.683	10.38
662.696	-6.62
662.71	2.38
662.723	3.38
662.736	11.38
662.749	15.38
662.762	14.38
662.776	-0.62
662.789	8.38
662.802	15.38
662.815	22.38
662.828	3.38
662.841	-10.62
662.855	1.38
662.868	7.38
662.881	-1.62
662.894	-13.62
662.907	-1.62
662.92	26.38
662.934	-6.62
662.947	-9.62
662.96	-8.62
662.973	-0.62
662.986	-3.62
662.999	-6.62
663.012	8.38
663.026	10.38
663.039	4.38
663.052	-3.62
663.065	8.38
663.078	17.38
663.091	15.38
663.104	1.38
663.117	-4.62
663.131	-2.62
663.144	3.38
663.157	-9.62
663.17	10.38
663.183	23.38
663.196	17.38
663.209	17.38
663.222	1.38
663.235	8.38
663.248	1.38
663.262	-8.62
663.275	-2.62
663.288	-5.62
663.301	-1.62
663.314	-8.62
663.327	-3.62
663.34	19.38
663.353	6.38
663.366	-5.62
663.379	17.38
663.392	9.38
663.405	-3.62
663.418	-8.62
663.431	0.38
663.445	11.38
663.458	14.38
663.471	12.38
663.484	12.38
663.497	12.38
663.51	3.38
663.523	6.38
663.536	11.38
663.549	-0.62
663.562	4.38
663.575	2.38
663.588	7.38
663.601	4.38
663.614	5.38
663.627	12.38
663.64	3.38
663.653	-5.62
663.666	-17.62
663.679	-16.62
663.692	20.38
663.705	30.38
663.718	-1.62
663.731	-7.62
663.744	-11.62
663.757	9.38
663.77	-1.62
663.783	5.38
663.796	19.38
663.809	7.38
663.822	9.38
663.835	-8.62
663.848	10.38
663.861	8.38
663.874	-10.62
663.887	3.38
663.9	12.38
663.913	9.38
663.926	1.38
663.939	-4.62
663.952	10.38
663.965	30.38
663.978	3.38
663.991	-6.62
664.004	17.38
664.017	20.38
664.03	17.38
664.042	1.38
664.055	0.38
664.068	6.38
664.081	-0.62
664.094	15.38
664.107	11.38
664.12	10.38
664.133	15.38
664.146	-1.62
664.159	5.38
664.172	4.38
664.185	21.38
664.198	11.38
664.21	24.38
664.223	17.38
664.236	16.38
664.249	23.38
664.262	6.38
664.275	4.38
664.288	10.38
664.301	26.38
664.314	12.38
664.327	3.38
664.339	-19.62
664.352	-9.62
664.365	10.38
664.378	18.38
664.391	26.38
664.404	13.38
664.417	17.38
664.43	5.38
664.442	2.38
664.455	9.38
664.468	9.38
664.481	8.38
664.494	14.38
664.507	1.38
664.52	2.38
664.532	14.38
664.545	23.38
664.558	3.38
664.571	-3.62
664.584	5.38
664.597	9.38
664.609	1.38
664.622	8.38
664.635	0.38
664.648	10.38
664.661	8.38
664.674	3.38
664.686	-3.62
664.699	2.38
664.712	8.38
664.725	0.38
664.738	12.38
664.751	20.38
664.763	16.38
664.776	11.38
664.789	21.38
664.802	16.38
664.815	12.38
664.827	9.38
664.84	20.38
664.853	-6.62
664.866	2.38
664.878	-6.62
664.891	4.38
664.904	17.38
664.917	22.38
664.93	13.38
664.942	12.38
664.955	28.38
664.968	22.38
664.981	2.38
664.993	8.38
665.006	10.38
665.019	13.38
665.032	2.38
665.044	6.38
665.057	20.38
665.07	3.38
665.083	-1.62
665.095	5.38
665.108	3.38
665.121	1.38
665.134	3.38
665.146	12.38
665.159	19.38
665.172	15.38
665.185	-0.62
665.197	8.38
665.21	15.38
665.223	12.38
665.235	35.38
665.248	56.38
665.261	9.38
665.274	6.38
665.286	22.38
665.299	11.38
665.312	9.38
665.324	28.38
665.337	20.38
665.35	23.38
665.362	1.38
665.375	10.38
665.388	17.38
665.4	19.38
665.413	17.38
665.426	2.38
665.438	-12.62
665.451	0.38
665.464	0.38
665.476	12.38
665.489	18.38
665.502	25.38
665.514	1.38
665.527	25.38
665.54	6.38
665.552	-16.62
665.565	8.38
665.578	6.38
665.59	8.38
665.603	20.38
665.616	19.38
665.628	14.38
665.641	15.38
665.654	13.38
665.666	20.38
665.679	17.38
665.691	29.38
665.704	8.38
665.717	-3.62
665.729	-7.62
665.742	1.38
665.755	4.38
665.767	-0.62
665.78	-3.62
665.792	15.38
665.805	7.38
665.818	4.38
665.83	-7.62
665.843	16.38
665.855	-5.62
665.868	-13.62
665.881	8.38
665.893	13.38
665.906	-2.62
665.918	-8.62
665.931	-15.62
665.943	14.38
665.956	9.38
665.969	-13.62
665.981	-12.62
665.994	-20.62
666.006	-21.62
666.019	-7.62
666.031	14.38
666.044	9.38
666.057	23.38
666.069	29.38
666.082	18.38
666.094	8.38
666.107	9.38
666.119	20.38
666.132	15.38
666.144	5.38
666.157	6.38
666.169	9.38
666.182	-4.62
666.194	12.38
666.207	22.38
666.22	20.38
666.232	29.38
666.245	16.38
666.257	3.38
666.27	-0.62
666.282	4.38
666.295	-2.62
666.307	0.38
666.32	3.38
666.332	1.38
666.345	10.38
666.357	23.38
666.37	24.38
666.382	12.38
666.395	12.38
666.407	1.38
666.42	3.38
666.432	1.38
666.445	16.38
666.457	8.38
666.469	-1.62
666.482	20.38
666.494	8.38
666.507	19.38
666.519	8.38
666.532	-2.62
666.544	-2.62
666.557	15.38
666.569	4.38
666.582	4.38
666.594	11.38
666.607	13.38
666.619	13.38
666.631	8.38
666.644	19.38
666.656	17.38
666.669	26.38
666.681	16.38
666.694	16.38
666.706	28.38
666.718	16.38
666.731	2.38
666.743	3.38
666.756	1.38
666.768	0.38
666.78	0.38
666.793	-0.62
666.805	7.38
666.818	-2.62
666.83	-2.62
666.843	14.38
666.855	9.38
666.867	21.38
666.88	1.38
666.892	4.38
666.904	17.38
666.917	27.38
666.929	7.38
666.942	18.38
666.954	57.38
666.966	13.38
666.979	9.38
666.991	-2.62
667.003	7.38
667.016	13.38
667.028	21.38
667.041	0.38
667.053	4.38
667.065	14.38
667.078	7.38
667.09	10.38
667.102	11.38
667.115	-0.62
667.127	6.38
667.139	8.38
667.152	16.38
667.164	4.38
667.176	15.38
667.189	0.38
667.201	-11.62
667.213	-0.62
667.226	7.38
667.238	9.38
667.25	-7.62
667.263	6.38
667.275	7.38
667.287	3.38
667.3	18.38
667.312	9.38
667.324	13.38
667.337	9.38
667.349	-2.62
667.361	1.38
667.373	-9.62
667.386	5.38
667.398	7.38
667.41	-4.62
667.423	5.38
667.435	16.38
667.447	17.38
667.459	8.38
667.472	19.38
667.484	17.38
667.496	-3.62
667.508	6.38
667.521	9.38
667.533	-6.62
667.545	2.38
667.558	4.38
667.57	5.38
667.582	-6.62
667.594	-3.62
667.607	26.38
667.619	11.38
667.631	17.38
667.643	20.38
667.655	-2.62
667.668	-1.62
667.68	14.38
667.692	12.38
667.704	-3.62
667.717	3.38
667.729	7.38
667.741	3.38
667.753	11.38
667.766	-2.62
667.778	2.38
667.79	4.38
667.802	1.38
667.814	2.38
667.827	7.38
667.839	7.38
667.851	-13.62
667.863	-14.62
667.875	5.38
667.888	16.38
667.9	19.38
667.912	10.38
667.924	-0.62
667.936	2.38
667.948	3.38
667.961	23.38
667.973	4.38
667.985	-0.62
667.997	6.38
668.009	15.38
668.021	14.38
668.034	3.38
668.046	6.38
668.058	5.38
668.07	4.38
668.082	11.38
668.094	18.38
668.107	17.38
668.119	19.38
668.131	-4.62
668.143	-2.62
668.155	19.38
668.167	12.38
668.179	12.38
668.192	11.38
668.204	9.38
668.216	4.38
668.228	11.38
668.24	0.38
668.252	10.38
668.264	15.38
668.276	-2.62
668.288	8.38
668.301	0.38
668.313	-4.62
668.325	4.38
668.337	6.38
668.349	4.38
668.361	8.38
668.373	14.38
668.385	17.38
668.397	5.38
668.409	-13.62
668.422	6.38
668.434	0.38
668.446	15.38
668.458	6.38
668.47	4.38
668.482	13.38
668.494	13.38
668.506	14.38
668.518	14.38
668.53	-1.62
668.542	3.38
668.554	-0.62
668.566	5.38
668.578	6.38
668.59	22.38
668.602	-3.62
668.615	-10.62
668.627	-8.62
668.639	5.38
668.651	9.38
668.663	11.38
668.675	-8.62
668.687	2.38
668.699	30.38
668.711	5.38
668.723	4.38
668.735	-0.62
668.747	9.38
668.759	10.38
668.771	-4.62
668.783	1.38
668.795	9.38
668.807	3.38
668.819	-6.62
668.831	4.38
668.843	-4.62
668.855	6.38
668.867	0.38
668.879	8.38
668.891	14.38
668.903	7.38
668.915	13.38
668.927	6.38
668.939	9.38
668.951	9.38
668.963	1.38
668.975	10.38
668.987	16.38
668.999	22.38
669.011	9.38
669.023	-7.62
669.035	17.38
669.046	7.38
669.058	14.38
669.07	15.38
669.082	10.38
669.094	-9.62
669.106	-16.62
669.118	16.38
669.13	7.38
669.142	-0.62
669.154	13.38
669.166	2.38
669.178	-4.62
669.19	-7.62
669.202	-2.62
669.214	0.38
669.226	4.38
669.237	17.38
669.249	7.38
669.261	-5.62
669.273	0.38
669.285	24.38
669.297	4.38
669.309	15.38
669.321	11.38
669.333	21.38
669.345	3.38
669.356	-12.62
669.368	-4.62
669.38	7.38
669.392	-13.62
669.404	-4.62
669.416	5.38
669.428	3.38
669.44	-3.62
669.451	-15.62
669.463	-5.62
669.475	-0.62
669.487	-14.62
669.499	-14.62
669.511	3.38
669.523	8.38
669.535	8.38
669.546	9.38
669.558	16.38
669.57	16.38
669.582	6.38
669.594	-3.62
669.606	1.38
669.617	8.38
669.629	1.38
669.641	-1.62
669.653	20.38
669.665	15.38
669.677	-2.62
669.688	0.38
669.7	-1.62
669.712	26.38
669.724	8.38
669.736	0.38
669.747	-10.62
669.759	6.38
669.771	5.38
669.783	4.38
669.795	3.38
669.807	4.38
669.818	2.38
669.83	9.38
669.842	3.38
669.854	14.38
669.865	5.38
669.877	13.38
669.889	16.38
669.901	16.38
669.913	11.38
669.924	22.38
669.936	25.38
669.948	12.38
669.96	4.38
669.971	-1.62
669.983	-2.62
669.995	7.38
670.007	7.38
670.018	13.38
670.03	21.38
670.042	3.38
670.054	2.38
670.065	-0.62
670.077	4.38
670.089	3.38
670.101	0.38
670.112	4.38
670.124	10.38
670.136	17.38
670.148	8.38
670.159	15.38
670.171	10.38
670.183	5.38
670.194	1.38
670.206	6.38
670.218	1.38
670.23	5.38
670.241	-7.62
670.253	8.38
670.265	17.38
670.276	14.38
670.288	2.38
670.3	9.38
670.312	13.38
670.323	4.38
670.335	4.38
670.347	4.38
670.358	8.38
670.37	7.38
670.382	-10.62
670.393	-6.62
670.405	-3.62
670.417	-1.62
670.428	1.38
670.44	16.38
670.452	7.38
670.463	2.38
670.475	-2.62
670.487	9.38
670.498	-2.62
670.51	-4.62
670.522	-14.62
670.533	0.38
670.545	7.38
670.557	-10.62
670.568	7.38
670.58	5.38
670.591	0.38
670.603	8.38
670.615	11.38
670.626	5.38
670.638	-1.62
670.65	3.38
670.661	6.38
670.673	-4.62
670.684	-4.62
670.696	-3.62
670.708	11.38
670.719	7.38
670.731	26.38
670.742	36.38
670.754	17.38
670.766	11.38
670.777	7.38
670.789	-0.62
670.8	-3.62
670.812	12.38
670.824	5.38
670.835	3.38
670.847	2.38
670.858	2.38
670.87	1.38
670.881	3.38
670.893	-5.62
670.905	-1.62
670.916	-12.62
670.928	-0.62
670.939	8.38
670.951	15.38
670.962	12.38
670.974	1.38
670.986	-6.62
670.997	-10.62
671.009	5.38
671.02	-2.62
671.032	-18.62
671.043	-19.62
671.055	-3.62
671.066	10.38
671.078	4.38
671.089	-16.62
671.101	3.38
671.112	18.38
671.124	4.38
671.135	-3.62
671.147	7.38
671.158	10.38
671.17	16.38
671.181	16.38
671.193	21.38
671.204	26.38
671.216	10.38
671.227	15.38
671.239	5.38
671.25	-1.62
671.262	-8.62
671.273	-1.62
671.285	5.38
671.296	-1.62
671.308	5.38
671.319	9.38
671.331	1.38
671.342	20.38
671.354	28.38
671.365	11.38
671.377	0.38
671.388	-12.62
671.4	-5.62
671.411	7.38
671.423	-8.62
671.434	9.38
671.446	6.38
671.457	9.38
671.468	1.38
671.48	7.38
671.491	9.38
671.503	31.38
671.514	6.38
671.526	1.38
671.537	3.38
671.548	-11.62
671.56	6.38
671.571	3.38
671.583	5.38
671.594	10.38
671.606	21.38
671.617	27.38
671.628	18.38
671.64	4.38
671.651	-1.62
671.663	9.38
671.674	5.38
671.685	-6.62
671.697	-16.62
671.708	-12.62
671.72	19.38
671.731	8.38
671.742	3.38
671.754	1.38
671.765	-2.62
671.777	-1.62
671.788	22.38
671.799	14.38
671.811	11.38
671.822	27.38
671.833	10.38
671.845	13.38
671.856	20.38
671.868	13.38
671.879	20.38
671.89	33.38
671.902	16.38
671.913	13.38
671.924	14.38
671.936	9.38
671.947	-0.62
671.958	-8.62
671.97	12.38
671.981	14.38
671.992	9.38
672.004	-3.62
672.015	12.38
672.026	14.38
672.038	-2.62
672.049	5.38
672.06	-9.62
672.072	-4.62
672.083	5.38
672.094	-3.62
672.106	16.38
672.117	31.38
672.128	29.38
672.139	7.38
672.151	3.38
672.162	15.38
672.173	7.38
672.185	-8.62
672.196	20.38
672.207	14.38
672.219	27.38
672.23	25.38
672.241	9.38
672.252	-3.62
672.264	4.38
672.275	4.38
672.286	7.38
672.297	-3.62
672.309	0.38
672.32	0.38
672.331	14.38
672.342	6.38
672.354	-4.62
672.365	8.38
672.376	9.38
672.387	-8.62
672.399	1.38
672.41	12.38
672.421	4.38
672.432	8.38
672.444	11.38
672.455	-1.62
672.466	0.38
672.477	13.38
672.489	14.38
672.5	-0.62
672.511	-0.62
672.522	6.38
672.533	15.38
672.545	4.38
672.556	8.38
672.567	-0.62
672.578	6.38
672.59	8.38
672.601	9.38
672.612	12.38
672.623	7.38
672.634	4.38
672.646	5.38
672.657	-19.62
672.668	-6.62
672.679	7.38
672.69	-1.62
672.701	-14.62
672.713	-4.62
672.724	-12.62
672.735	-11.62
672.746	-1.62
672.757	8.38
672.768	10.38
672.78	2.38
672.791	7.38
672.802	6.38
672.813	13.38
672.824	9.38
672.835	13.38
672.847	-11.62
672.858	-3.62
672.869	0.38
672.88	13.38
672.891	14.38
672.902	13.38
672.913	17.38
672.925	9.38
672.936	0.38
672.947	9.38
672.958	16.38
672.969	-0.62
672.98	13.38
672.991	7.38
673.002	-2.62
673.013	4.38
673.025	-5.62
673.036	1.38
673.047	8.38
673.058	0.38
673.069	-3.62
673.08	-3.62
673.091	3.38
673.102	1.38
673.113	6.38
673.124	8.38
673.136	12.38
673.147	1.38
673.158	-1.62
673.169	1.38
673.18	4.38
673.191	0.38
673.202	4.38
673.213	6.38
673.224	12.38
673.235	12.38
673.246	2.38
673.257	12.38
673.268	5.38
673.279	2.38
673.29	-0.62
673.301	18.38
673.313	24.38
673.324	18.38
673.335	8.38
673.346	6.38
673.357	23.38
673.368	7.38
673.379	8.38
673.39	10.38
673.401	22.38
673.412	8.38
673.423	2.38
673.434	-6.62
673.445	4.38
673.456	9.38
673.467	14.38
673.478	18.38
673.489	26.38
673.5	15.38
673.511	13.38
673.522	14.38
673.533	24.38
673.544	19.38
673.555	7.38
673.566	6.38
673.577	12.38
673.588	5.38
673.599	11.38
673.61	-2.62
673.621	0.38
673.632	22.38
673.643	9.38
673.654	12.38
673.665	7.38
673.676	-10.62
673.687	8.38
673.698	7.38
673.709	21.38
673.719	14.38
673.73	20.38
673.741	35.38
673.752	35.38
673.763	41.38
673.774	9.38
673.785	16.38
673.796	11.38
673.807	20.38
673.818	17.38
673.829	19.38
673.84	27.38
673.851	20.38
673.862	9.38
673.873	2.38
673.883	12.38
673.894	6.38
673.905	17.38
673.916	37.38
673.927	28.38
673.938	29.38
673.949	10.38
673.96	-1.62
673.971	1.38
673.982	1.38
673.993	-4.62
674.003	11.38
674.014	-1.62
674.025	-0.62
674.036	-2.62
674.047	3.38
674.058	7.38
674.069	7.38
674.08	4.38
674.09	34.38
674.101	9.38
674.112	-6.62
674.123	15.38
674.134	16.38
674.145	-17.62
674.156	-8.62
674.166	-7.62
674.177	-6.62
674.188	5.38
674.199	-1.62
674.21	4.38
674.221	-3.62
674.232	0.38
674.242	9.38
674.253	10.38
674.264	17.38
674.275	17.38
674.286	6.38
674.297	6.38
674.307	1.38
674.318	8.38
674.329	5.38
674.34	10.38
674.351	6.38
674.361	-5.62
674.372	23.38
674.383	-12.62
674.394	-5.62
674.405	28.38
674.415	18.38
674.426	3.38
674.437	-6.62
674.448	2.38
674.459	7.38
674.469	4.38
674.48	4.38
674.491	3.38
674.502	-9.62
674.512	-0.62
674.523	-8.62
674.534	-14.62
674.545	-7.62
674.556	3.38
674.566	5.38
674.577	3.38
674.588	10.38
674.599	-3.62
674.609	4.38
674.62	5.38
674.631	2.38
674.642	-17.62
674.652	-2.62
674.663	11.38
674.674	25.38
674.685	22.38
674.695	35.38
674.706	21.38
674.717	-5.62
674.727	0.38
674.738	-1.62
674.749	6.38
674.76	-3.62
674.77	1.38
674.781	-16.62
674.792	3.38
674.802	23.38
674.813	11.38
674.824	18.38
674.835	14.38
674.845	-5.62
674.856	14.38
674.867	17.38
674.877	10.38
674.888	5.38
674.899	2.38
674.909	3.38
674.92	7.38
674.931	6.38
674.941	1.38
674.952	17.38
674.963	33.38
674.973	21.38
674.984	20.38
674.995	19.38
675.005	0.38
675.016	10.38
675.027	10.38
675.037	8.38
675.048	11.38
675.059	17.38
675.069	24.38
675.08	22.38
675.091	-14.62
675.101	-4.62
675.112	-0.62
675.123	17.38
675.133	24.38
675.144	11.38
675.154	-3.62
675.165	0.38
675.176	19.38
675.186	29.38
675.197	20.38
675.208	12.38
675.218	14.38
675.229	3.38
675.239	13.38
675.25	12.38
675.261	16.38
675.271	20.38
675.282	14.38
675.292	9.38
675.303	-4.62
675.314	14.38
675.324	11.38
675.335	-11.62
675.345	-11.62
675.356	5.38
675.366	-2.62
675.377	7.38
675.388	11.38
675.398	15.38
675.409	12.38
675.419	22.38
675.43	22.38
675.44	25.38
675.451	13.38
675.462	24.38
675.472	12.38
675.483	8.38
675.493	8.38
675.504	7.38
675.514	-5.62
675.525	3.38
675.535	-1.62
675.546	13.38
675.556	17.38
675.567	20.38
675.578	1.38
675.588	8.38
675.599	2.38
675.609	6.38
675.62	2.38
675.63	9.38
675.641	8.38
675.651	-7.62
675.662	-0.62
675.672	-4.62
675.683	5.38
675.693	5.38
675.704	0.38
675.714	15.38
675.725	33.38
675.735	13.38
675.746	22.38
675.756	7.38
675.767	11.38
675.777	10.38
675.788	27.38
675.798	6.38
675.809	10.38
675.819	21.38
675.829	16.38
675.84	-3.62
675.85	6.38
675.861	20.38
675.871	22.38
675.882	11.38
675.892	1.38
675.903	17.38
675.913	15.38
675.924	5.38
675.934	-0.62
675.944	15.38
675.955	25.38
675.965	4.38
675.976	9.38
675.986	25.38
675.997	4.38
676.007	-0.62
676.018	8.38
676.028	28.38
676.038	3.38
676.049	1.38
676.059	-0.62
676.07	7.38
676.08	17.38
676.09	-0.62
676.101	-9.62
676.111	21.38
676.122	26.38
676.132	9.38
676.142	9.38
676.153	10.38
676.163	10.38
676.174	-16.62
676.184	-13.62
676.194	6.38
676.205	0.38
676.215	4.38
676.226	11.38
676.236	27.38
676.246	21.38
676.257	0.38
676.267	-6.62
676.277	1.38
676.288	5.38
676.298	3.38
676.308	23.38
676.319	11.38
676.329	14.38
676.34	25.38
676.35	20.38
676.36	2.38
676.371	-14.62
676.381	-5.62
676.391	-0.62
676.402	-3.62
676.412	9.38
676.422	13.38
676.433	8.38
676.443	15.38
676.453	11.38
676.464	4.38
676.474	31.38
676.484	20.38
676.494	-7.62
676.505	5.38
676.515	14.38
676.525	16.38
676.536	21.38
676.546	15.38
676.556	15.38
676.567	12.38
676.577	9.38
676.587	20.38
676.597	13.38
676.608	14.38
676.618	-2.62
676.628	-1.62
676.639	0.38
676.649	7.38
676.659	13.38
676.669	8.38
676.68	2.38
676.69	10.38
676.7	15.38
676.71	21.38
676.721	34.38
676.731	20.38
676.741	4.38
676.751	13.38
676.762	8.38
676.772	-3.62
676.782	-10.62
676.792	1.38
676.803	6.38
676.813	-8.62
676.823	-0.62
676.833	14.38
676.844	22.38
676.854	2.38
676.864	12.38
676.874	9.38
676.885	15.38
676.895	19.38
676.905	-13.62
676.915	-21.62
676.925	-9.62
676.936	18.38
676.946	7.38
676.956	-3.62
676.966	8.38
676.976	3.38
676.987	-8.62
676.997	-6.62
677.007	-0.62
677.017	21.38
677.027	21.38
677.038	20.38
677.048	5.38
677.058	-4.62
677.068	10.38
677.078	0.38
677.088	8.38
677.099	-10.62
677.109	1.38
677.119	1.38
677.129	0.38
677.139	14.38
677.149	21.38
677.16	-6.62
677.17	10.38
677.18	16.38
677.19	23.38
677.2	1.38
677.21	-3.62
677.22	10.38
677.231	4.38
677.241	-2.62
677.251	0.38
677.261	13.38
677.271	15.38
677.281	0.38
677.291	17.38
677.301	3.38
677.312	29.38
677.322	60.38
677.332	6.38
677.342	8.38
677.352	24.38
677.362	9.38
677.372	3.38
677.382	25.38
677.392	26.38
677.402	8.38
677.413	-14.62
677.423	5.38
677.433	13.38
677.443	29.38
677.453	28.38
677.463	6.38
677.473	-15.62
677.483	-14.62
677.493	6.38
677.503	13.38
677.513	0.38
677.523	-0.62
677.533	-2.62
677.544	9.38
677.554	15.38
677.564	15.38
677.574	21.38
677.584	17.38
677.594	-7.62
677.604	-19.62
677.614	14.38
677.624	26.38
677.634	21.38
677.644	9.38
677.654	13.38
677.664	3.38
677.674	-7.62
677.684	8.38
677.694	2.38
677.704	10.38
677.714	20.38
677.724	-2.62
677.734	13.38
677.744	0.38
677.754	-4.62
677.764	-0.62
677.774	11.38
677.784	14.38
677.794	5.38
677.804	11.38
677.814	19.38
677.824	12.38
677.834	10.38
677.844	8.38
677.854	10.38
677.864	16.38
677.874	4.38
677.884	0.38
677.894	5.38
677.904	13.38
677.914	6.38
677.924	21.38
677.934	38.38
677.944	16.38
677.954	5.38
677.964	2.38
677.974	-7.62
677.984	3.38
677.994	18.38
678.004	21.38
678.014	-13.62
678.024	9.38
678.033	16.38
678.043	13.38
678.053	19.38
678.063	7.38
678.073	15.38
678.083	8.38
678.093	20.38
678.103	0.38
678.113	2.38
678.123	-0.62
678.133	-5.62
678.143	-6.62
678.153	3.38
678.162	11.38
678.172	12.38
678.182	2.38
678.192	-10.62
678.202	-15.62
678.212	-3.62
678.222	20.38
678.232	19.38
678.242	21.38
678.252	19.38
678.261	17.38
678.271	16.38
678.281	11.38
678.291	19.38
678.301	13.38
678.311	1.38
678.321	12.38
678.331	13.38
678.34	6.38
678.35	1.38
678.36	-6.62
678.37	-9.62
678.38	13.38
678.39	-10.62
678.4	-12.62
678.409	8.38
678.419	-2.62
678.429	-11.62
678.439	-0.62
678.449	-0.62
678.459	16.38
678.468	19.38
678.478	8.38
678.488	12.38
678.498	24.38
678.508	15.38
678.518	2.38
678.527	11.38
678.537	9.38
678.547	5.38
678.557	-2.62
678.567	-2.62
678.576	0.38
678.586	7.38
678.596	28.38
678.606	17.38
678.616	9.38
678.625	17.38
678.635	20.38
678.645	1.38
678.655	-7.62
678.665	15.38
678.674	3.38
678.684	24.38
678.694	4.38
678.704	-2.62
678.713	3.38
678.723	15.38
678.733	16.38
678.743	11.38
678.752	9.38
678.762	4.38
678.772	16.38
678.782	15.38
678.791	15.38
678.801	12.38
678.811	2.38
678.821	-4.62
678.83	14.38
678.84	20.38
678.85	-2.62
678.86	-0.62
678.869	18.38
678.879	36.38
678.889	18.38
678.899	12.38
678.908	5.38
678.918	3.38
678.928	9.38
678.937	-4.62
678.947	-2.62
678.957	3.38
678.967	8.38
678.976	-0.62
678.986	7.38
678.996	-3.62
679.005	-10.62
679.015	-14.62
679.025	-6.62
679.034	0.38
679.044	20.38
679.054	4.38
679.063	-4.62
679.073	13.38
679.083	20.38
679.093	5.38
679.102	20.38
679.112	5.38
679.122	-0.62
679.131	17.38
679.141	3.38
679.151	9.38
679.16	-3.62
679.17	-9.62
679.179	-4.62
679.189	-4.62
679.199	-7.62
679.208	24.38
679.218	20.38
679.228	15.38
679.237	6.38
679.247	12.38
679.257	0.38
679.266	-1.62
679.276	5.38
679.285	-6.62
679.295	-4.62
679.305	1.38
679.314	1.38
679.324	-0.62
679.334	7.38
679.343	21.38
679.353	30.38
679.362	19.38
679.372	17.38
679.382	11.38
679.391	0.38
679.401	33.38
679.41	16.38
679.42	14.38
679.43	0.38
679.439	-8.62
679.449	17.38
679.458	27.38
679.468	14.38
679.477	3.38
679.487	-6.62
679.497	9.38
679.506	14.38
679.516	9.38
679.525	15.38
679.535	20.38
679.544	5.38
679.554	1.38
679.564	-1.62
679.573	-7.62
679.583	12.38
679.592	1.38
679.602	10.38
679.611	5.38
679.621	-2.62
679.63	-13.62
679.64	-3.62
679.649	12.38
679.659	1.38
679.669	-6.62
679.678	5.38
679.688	12.38
679.697	17.38
679.707	27.38
679.716	25.38
679.726	23.38
679.735	14.38
679.745	6.38
679.754	7.38
679.764	19.38
679.773	13.38
679.783	7.38
679.792	4.38
679.802	6.38
679.811	-7.62
679.821	-12.62
679.83	12.38
679.84	10.38
679.849	9.38
679.859	15.38
679.868	-3.62
679.877	-5.62
679.887	3.38
679.896	-0.62
679.906	-7.62
679.915	6.38
679.925	10.38
679.934	3.38
679.944	19.38
679.953	7.38
679.963	6.38
679.972	7.38
679.982	-0.62
679.991	-11.62
680	-12.62
680.01	-3.62
680.019	8.38
680.029	8.38
680.038	13.38
680.048	-5.62
680.057	-7.62
680.066	8.38
680.076	-3.62
680.085	2.38
680.095	15.38
680.104	11.38
680.114	-4.62
680.123	1.38
680.132	7.38
680.142	12.38
680.151	11.38
680.161	1.38
680.17	3.38
680.179	7.38
680.189	3.38
680.198	-10.62
680.208	-14.62
680.217	5.38
